     Lat(Pc)      Lat(Pg)       U(m/s)      Sigma_U     Sigma_Lt   Npt
      -29.99       -33.42        -5.95         4.04         0.15    17
      -29.49       -32.89       -14.00         3.54         0.15    17
      -28.98       -32.35       -17.59         2.28         0.15    19
      -28.50       -31.84       -19.70         3.45         0.13    16
      -28.00       -31.31       -16.72         6.36         0.15    18
      -27.45       -30.71        -3.98         6.07         0.15    18
      -26.96       -30.19         4.87         3.97         0.12    17
      -26.48       -29.66        13.67         4.45         0.14    18
      -25.97       -29.12        20.80         5.89         0.14    25
      -25.49       -28.60        26.29         4.72         0.15    40
      -24.98       -28.05        31.97         5.21         0.13    35
      -24.48       -27.50        31.78         3.93         0.15    46
      -23.96       -26.94        34.60         5.04         0.14    44
      -23.49       -26.43        40.34         4.29         0.14    60
      -22.99       -25.88        39.38         3.22         0.15    61
      -22.49       -25.33        32.21         4.88         0.15    56
      -21.99       -24.78        21.93         5.27         0.14    61
      -21.46       -24.21        11.64         5.44         0.14    60
      -20.99       -23.69         4.59         7.24         0.14    64
      -20.49       -23.14        -2.35         5.52         0.15    77
      -20.01       -22.61        -9.71         6.91         0.13    66
      -19.49       -22.04       -18.75        10.86         0.15    73
      -19.00       -21.49       -28.70        11.49         0.14    63
      -18.49       -20.93       -43.47        12.97         0.14    62
      -18.02       -20.41       -49.98        11.58         0.14    63
      -17.48       -19.81       -50.42         9.40         0.14    69
      -16.99       -19.26       -51.49         7.02         0.13    60
      -16.48       -18.69       -51.32         8.36         0.15    74
      -15.99       -18.15       -43.60        11.27         0.14    75
      -15.48       -17.58       -36.59        10.91         0.14    74
      -14.99       -17.03       -24.58        10.13         0.13    74
      -14.51       -16.48       -13.63        12.92         0.14    82
      -13.98       -15.89        -4.88        12.51         0.14    80
      -13.53       -15.39         2.69        16.96         0.14    90
      -12.99       -14.78        20.38        16.12         0.14    76
      -12.49       -14.21        27.09        11.93         0.15    85
      -12.00       -13.67        32.21        10.36         0.14    82
      -11.49       -13.09        38.01         6.48         0.14    76
      -10.98       -12.50        36.65         5.39         0.14   117
      -10.49       -11.95        40.20         7.30         0.14   151
      -10.01       -11.41        43.47         9.06         0.14   152
       -9.50       -10.83        45.69        11.60         0.15   135
       -8.99       -10.25        45.85        10.88         0.15   119
       -8.50        -9.70        53.74        10.07         0.15   114
       -7.99        -9.12        63.74        14.96         0.14   127
       -7.50        -8.57        93.03        15.76         0.14   128
       -6.99        -7.98       112.84        21.03         0.14   145
       -6.48        -7.40       132.85         9.68         0.15   175
       -5.99        -6.84       137.58         7.47         0.14   171
       -5.49        -6.27       133.35        10.78         0.15   180
       -4.99        -5.70       119.08        11.56         0.14   190
       -4.48        -5.12       109.18        14.00         0.15   185
       -3.97        -4.54        97.29        13.33         0.15   212
       -3.50        -4.00        93.55        14.13         0.14   165
       -3.00        -3.42        91.19        15.45         0.14   149
       -2.49        -2.84        89.64        15.91         0.14   121
       -1.97        -2.26        78.98        11.68         0.14   116
       -1.50        -1.72        76.66        11.27         0.15   116
       -1.00        -1.14        81.42        13.44         0.15   117
       -0.48        -0.55        74.02         8.50         0.15   111
       -0.01        -0.01        74.14         9.48         0.14    84
        0.49         0.57        79.49        18.12         0.14   129
        0.97         1.11        78.99        19.57         0.14   101
        1.51         1.73        83.02        26.46         0.14   105
        1.99         2.28        85.75        21.54         0.14   135
        2.49         2.85        81.21        20.02         0.15   118
        3.01         3.44        90.11        28.17         0.14   116
        3.49         3.99        93.95        29.53         0.15   132
        4.02         4.59        85.58        20.03         0.13    98
        4.50         5.14        90.94        16.39         0.14   121
        4.99         5.70        98.52        19.91         0.14   110
        5.51         6.29        88.99        16.18         0.14    95
        6.02         6.87        91.17        12.43         0.14    87
        6.51         7.43        94.37        10.84         0.13    97
        7.01         8.00        88.35        12.56         0.15   108
        7.50         8.57        92.12        18.80         0.14   106
        8.02         9.15        90.78        14.73         0.14   101
        8.50         9.69        82.12         9.48         0.14   113
        9.00        10.27        73.81        13.94         0.14   133
        9.50        10.83        65.32        15.38         0.14   129
       10.00        11.40        64.67        12.30         0.14   150
       10.51        11.98        54.61        14.81         0.13   124
       11.00        12.53        43.57        12.17         0.14   132
       11.50        13.10        37.69        17.51         0.15   123
       12.01        13.67        23.09        12.17         0.14   118
       12.51        14.24        20.42        13.09         0.14   114
       13.00        14.79        15.18        15.39         0.14    96
       13.51        15.36         9.06        13.78         0.14   111
       14.00        15.91         3.00        11.81         0.14   121
       14.49        16.47        -4.26        13.64         0.14    93
       15.01        17.04       -13.67        10.55         0.15   119
       15.50        17.60       -18.28         8.46         0.14   116
       15.99        18.15       -17.98         7.56         0.14   128
       16.49        18.70       -15.36         9.35         0.14   118
       16.99        19.26        -3.96        14.54         0.14   107
       17.51        19.84        13.56        23.03         0.14    98
       18.00        20.38        30.27        17.10         0.14   111
       18.49        20.93        49.72        18.02         0.15   113
       19.01        21.50        81.75        18.13         0.14   103
       19.51        22.05        99.86        13.22         0.15   136
       19.99        22.59       122.89        16.44         0.13   111
       20.49        23.14       140.74        19.13         0.15   109
       20.97        23.67       147.76        18.24         0.14    86
       21.50        24.25       132.59        16.55         0.15    85
       22.01        24.81       106.11        15.12         0.14    70
       22.51        25.35        82.74        13.01         0.15    81
       23.01        25.90        62.79        11.85         0.14    94
       23.50        26.44        46.06        11.12         0.14    96
       23.99        26.98        35.10         8.24         0.14    84
       24.51        27.53        26.54         9.51         0.15    80
       24.99        28.06        22.13        11.07         0.13    67
       25.48        28.58        20.18        12.03         0.14    73
       25.98        29.13        11.20        19.63         0.14    56
       26.49        29.68        -6.82        17.39         0.14    60
       27.01        30.24       -24.08        12.50         0.14    56
       27.50        30.76       -28.49         7.27         0.14    52
       27.99        31.29       -27.35         6.70         0.15    44
       28.51        31.84       -21.99         5.49         0.15    42
       29.00        32.37       -12.67         5.18         0.14    42
       29.48        32.89        -1.24         5.39         0.14    45
       29.99        33.42        11.53         7.55         0.14    36
